t(yr),T_surf(K),p_H2O(bar),phi(vol_frac)
0,3599,12.070764562550622,0.927748727236315
1.192092895507812e-07,3.598999999770180e+03,12.070764562552171,0.927748727236269
3.576278686523438e-07,3.598999999310541e+03,12.070764562555263,0.927748727236175
4.768371582031250e-07,3.598999999080721e+03,12.070764562556807,0.927748727236129
5.960464477539062e-07,3.598999998850902e+03,12.070764562558354,0.927748727236082
1.192092895507812e-06,3.598999997701803e+03,12.070764562566085,0.927748727235850
4.172325134277344e-06,3.598999991956312e+03,12.070764562604721,0.927748727234688
1.907348632812500e-05,3.598999963228860e+03,12.070764562797914,0.927748727228879
9.357929229736328e-05,3.598999819591638e+03,12.070764563764003,0.927748727199830
4.661083221435547e-04,3.598999101406614e+03,12.070764568597262,0.927748727054500
0.001444265246391,3.598997215660961e+03,12.070764581310465,0.927748726672242
0.002422422170639,3.598995329929232e+03,12.070764594056113,0.927748726289024
0.004508636891842,3.598991308081100e+03,12.070764621348575,0.927748725468488
0.006594851613045,3.598987286287623e+03,12.070764648788964,0.927748724643577
0.008681066334248,3.598983264550846e+03,12.070764676377459,0.927748723814287
0.011567287147045,3.598977700681471e+03,12.070764714789975,0.927748722659753
0.014453507959843,3.598972136921144e+03,12.070764753486847,0.927748721496809
0.017339728772640,3.598966573269474e+03,12.070764792468594,0.927748720325442
0.020902946591377,3.598959704753130e+03,12.070764840987653,0.927748718867674
0.024466164410114,3.598952836397314e+03,12.070764889942659,0.927748717397014
0.028029382228851,3.598945968207363e+03,12.070764939334516,0.927748715913435
0.032313086092472,3.598937711480306e+03,12.070764999293123,0.927748714112733
0.036596789956093,3.598929454995495e+03,12.070765059886067,0.927748712293272
0.040880493819714,3.598921198750847e+03,12.070765121114990,0.927748710455004
0.045164197683334,3.598912942746518e+03,12.070765182981496,0.927748708597881
0.049447901546955,3.598904686982660e+03,12.070765245487191,0.927748706721855
0.054644286632538,3.598894672576551e+03,12.070765322170615,0.927748704420683
0.059840671718121,3.598884658526106e+03,12.070765399799768,0.927748702091544
0.065037056803703,3.598874644830280e+03,12.070765478377451,0.927748699734355
0.070233441889286,3.598864631489340e+03,12.070765557906469,0.927748697349032
0.075429826974869,3.598854618503551e+03,12.070765638389584,0.927748694935495
0.080626212060452,3.598844605873176e+03,12.070765719829550,0.927748692493660
0.086894430220127,3.598832528457931e+03,12.070765819345031,0.927748689510388
0.093162648379803,3.598820451562309e+03,12.070765920261547,0.927748686485685
0.099430866539478,3.598808375185130e+03,12.070766022583863,0.927748683419408
0.105699084699154,3.598796299326846e+03,12.070766126316679,0.927748680311419
0.111967302858829,3.598784223987901e+03,12.070766231464669,0.927748677161580
0.118235521018505,3.598772149168739e+03,12.070766338032481,0.927748673969754
0.124503739178181,3.598760074869800e+03,12.070766446024715,0.927748670735804
0.130771957337856,3.598748001091521e+03,12.070766555445946,0.927748667459595
0.138421110808849,3.598733268074133e+03,12.070766690916265,0.927748663404161
0.146070264279842,3.598718535835027e+03,12.070766828529537,0.927748659285354
0.153719417750835,3.598703804373463e+03,12.070766968293920,0.927748655102933
0.161368571221828,3.598689073690212e+03,12.070767110217488,0.927748650856661
0.169017724692822,3.598674343786035e+03,12.070767254308246,0.927748646546299
0.176666878163815,3.598659614661688e+03,12.070767400574132,0.927748642171614
0.184316031634808,3.598644886317923e+03,12.070767549023042,0.927748637732371
0.191965185105801,3.598630158755483e+03,12.070767699662792,0.927748633228340
0.199614338576794,3.598615431975107e+03,12.070767852501156,0.927748628659290
0.208861835300922,3.598597628981845e+03,12.070768040223196,0.927748623048356
0.218109332025051,3.598579827130116e+03,12.070768231183463,0.927748617341658
0.227356828749180,3.598562026425057e+03,12.070768425395318,0.927748611538804
0.236604325473309,3.598544226867931e+03,12.070768622872038,0.927748605639400
0.245851822197437,3.598526428459985e+03,12.070768823626759,0.927748599643057
0.255099318921566,3.598508631202457e+03,12.070769027672540,0.927748593549391
0.264346815645695,3.598490835096574e+03,12.070769235022315,0.927748587358017
0.273594312369823,3.598473040143550e+03,12.070769445688892,0.927748581068557
0.282841809093952,3.598455246344593e+03,12.070769659685007,0.927748574680635
0.292089305818081,3.598437453700895e+03,12.070769877023269,0.927748568193878
0.303243026137352,3.598415994929183e+03,12.070770143627222,0.927748560237942
0.314396746456623,3.598394537839625e+03,12.070770415133177,0.927748552137043
0.325550466775894,3.598373082436515e+03,12.070770691562675,0.927748543890543
0.336704187095165,3.598351628721872e+03,12.070770972937064,0.927748535497810
0.347857907414436,3.598330176697694e+03,12.070771259277507,0.927748526958220
0.359011627733707,3.598308726365963e+03,12.070771550604968,0.927748518271152
0.370165348052979,3.598287277728639e+03,12.070771846940215,0.927748509435992
0.381319068372250,3.598265830787665e+03,12.070772148303845,0.927748500452131
0.392472788691521,3.598244385544967e+03,12.070772454716263,0.927748491318965
0.403626509010792,3.598222942002450e+03,12.070772766197702,0.927748482035897
0.414780229330063,3.598201500162005e+03,12.070773082768204,0.927748472602332
0.428265206515789,3.598175578999354e+03,12.070773472330737,0.927748460995209
0.441750183701515,3.598149660335237e+03,12.070773869395806,0.927748449166219
0.455235160887241,3.598123744168307e+03,12.070774273997930,0.927748437114340
0.468720138072968,3.598097830501772e+03,12.070774686171236,0.927748424838564
0.482205115258694,3.598071919338807e+03,12.070775105949512,0.927748412337891
0.495690092444420,3.598046010682554e+03,12.070775533366213,0.927748399611332
0.509175069630146,3.598020104536123e+03,12.070775968454479,0.927748386657908
0.522660046815872,3.597994200902592e+03,12.070776411247136,0.927748373476646
0.536145024001598,3.597968299785011e+03,12.070776861776691,0.927748360066587
0.549630001187325,3.597942401186398e+03,12.070777320075393,0.927748346426777
0.563114978373051,3.597916505109743e+03,12.070777786175153,0.927748332556272
0.576599955558777,3.597890611558005e+03,12.070778260107598,0.927748318454135
0.592998310923576,3.597859127208462e+03,12.070778847031999,0.927748300991801
0.609396666288376,3.597827646602864e+03,12.070779445641309,0.927748283183918
0.625795021653175,3.597796169745749e+03,12.070780055990797,0.927748265028851
0.642193377017975,3.597764696642219e+03,12.070780678135145,0.927748246524983
0.658591732382774,3.597733227297324e+03,12.070781312128466,0.927748227670715
0.674990087747574,3.597701761716054e+03,12.070781958024330,0.927748208464461
0.691388443112373,3.597670299903349e+03,12.070782615875778,0.927748188904655
0.707786798477173,3.597638841864096e+03,12.070783285735306,0.927748168989743
0.724185153841972,3.597607387603131e+03,12.070783967654906,0.927748148718187
0.740583509206772,3.597575937125240e+03,12.070784661686091,0.927748128088466
0.756981864571571,3.597544490435158e+03,12.070785367879836,0.927748107099071
0.773380219936371,3.597513047537576e+03,12.070786086286690,0.927748085748507
0.793206147849560,3.597475037543097e+03,12.070786971237142,0.927748059450791
0.813032075762749,3.597437033103215e+03,12.070787874200573,0.927748032620392
0.832858003675938,3.597399034229846e+03,12.070788795263494,0.927748005254753
0.852683931589127,3.597361040930915e+03,12.070789734511559,0.927747977351339
0.872509859502316,3.597323053214256e+03,12.070790692029517,0.927747948907645
0.892335787415504,3.597285071087612e+03,12.070791667901219,0.927747919921193
0.912161715328693,3.597247094558641e+03,12.070792662209643,0.927747890389527
0.931987643241882,3.597209123634915e+03,12.070793675036910,0.927747860310219
0.951813571155071,3.597171158323922e+03,12.070794706464321,0.927747829680867
0.971639499068260,3.597133198633069e+03,12.070795756572350,0.927747798499090
0.991465426981449,3.597095244569685e+03,12.070796825440672,0.927747766762531
1.011291354894638,3.597057296141019e+03,12.070797913148175,0.927747734468860
1.035189300775528,3.597011561039618e+03,12.070799249413360,0.927747694798552
1.059087246656418,3.596965834149290e+03,12.070800613299975,0.927747654311423
1.082985192537308,3.596920115481088e+03,12.070802004941912,0.927747613003513
1.106883138418198,3.596874405047130e+03,12.070803424471524,0.927747570870908
1.130781084299088,3.596828702859382e+03,12.070804872019718,0.927747527909739
1.154679030179977,3.596783008929671e+03,12.070806347715930,0.927747484116177
1.178576976060867,3.596737323269683e+03,12.070807851688246,0.927747439486435
1.202474921941757,3.596691645890966e+03,12.070809384063333,0.927747394016768
1.226372867822647,3.596645976804936e+03,12.070810944966567,0.927747347703470
1.250270813703537,3.596600316022879e+03,12.070812534522007,0.927747300542871
1.274168759584427,3.596554663555953e+03,12.070814152852408,0.927747252531342
1.298066705465317,3.596509019415189e+03,12.070815800079316,0.927747203665290
1.326837897300720,3.596454078632624e+03,12.070817821718787,0.927747143695659
1.355609089136124,3.596399149947657e+03,12.070819885623523,0.927747082476167
1.384380280971527,3.596344233383978e+03,12.070821991998516,0.927747020000753
1.413151472806931,3.596289328959911e+03,12.070824141046559,0.927746956263422
1.441922664642334,3.596234436693547e+03,12.070826332968110,0.927746891258245
1.470693856477737,3.596179556602748e+03,12.070828567961343,0.927746824979365
1.499465048313141,3.596124688705154e+03,12.070830846222222,0.927746757420987
1.528236240148544,3.596069833018188e+03,12.070833167944532,0.927746688577382
1.557007431983948,3.596014989559059e+03,12.070835533319931,0.927746618442883
1.585778623819351,3.595960158344770e+03,12.070837942538006,0.927746547011885
1.614549815654755,3.595905339392119e+03,12.070840395786309,0.927746474278842
1.643321007490158,3.595850532717705e+03,12.070842893250424,0.927746400238269
1.677961960434914,3.595784560959063e+03,12.070845959170677,0.927746309349481
1.712602913379669,3.595718607055121e+03,12.070849089771176,0.927746216548001
1.747243866324425,3.595652671030266e+03,12.070852285365048,0.927746121824571
1.781884819269180,3.595586752911994e+03,12.070855546261443,0.927746025170053
1.816525772213936,3.595520852727430e+03,12.070858872765815,0.927745926575415
1.851166725158691,3.595454970503338e+03,12.070862265179990,0.927745826031735
1.885807678103447,3.595389106266123e+03,12.070865723802296,0.927745723530194
1.920448631048203,3.595323260041849e+03,12.070869248927558,0.927745619062075
1.955089583992958,3.595257431856237e+03,12.070872840847258,0.927745512618762
1.989730536937714,3.595191621734682e+03,12.070876499849579,0.927745404191736
2.024371489882469,3.595125829702250e+03,12.070880226219481,0.927745293772574
2.059012442827225,3.595060055783696e+03,12.070884020238754,0.927745181352944
2.100768819451332,3.594980795690142e+03,12.070888683896223,0.927745043170674
2.142525196075439,3.594901561992240e+03,12.070893446735395,0.927744902055502
2.184281572699547,3.594822354733134e+03,12.070898309232330,0.927744757993354
2.226037949323654,3.594743173953818e+03,12.070903271857079,0.927744610970336
2.267794325947762,3.594664019694690e+03,12.070908335073796,0.927744460972728
2.309550702571869,3.594584891995570e+03,12.070913499340856,0.927744307986982
2.351307079195976,3.594505790895711e+03,12.070918765111010,0.927744151999715
2.393063455820084,3.594426716433816e+03,12.070924132831488,0.927743992997709
2.434819832444191,3.594347668648042e+03,12.070929602944169,0.927743830967904
2.476576209068298,3.594268647576021e+03,12.070935175885651,0.927743665897395
2.518332585692406,3.594189653254867e+03,12.070940852087396,0.927743497773430
2.560088962316513,3.594110685721189e+03,12.070946631975831,0.927743326583406
2.610531844198704,3.594015326484297e+03,12.070953753149565,0.927743115673546
2.660974726080894,3.593920006460340e+03,12.070961026984564,0.927742900249452
2.711417607963085,3.593824725705305e+03,12.070968454205021,0.927742680289721
2.761860489845276,3.593729484279926e+03,12.070976035524893,0.927742455773255
2.812303371727467,3.593634282243983e+03,12.070983771648658,0.927742226679236
2.862746253609657,3.593539119656324e+03,12.070991663271531,0.927741992987120
2.913189135491848,3.593443996574881e+03,12.070999711079644,0.927741754676632
2.963632017374039,3.593348913056696e+03,12.071007915750279,0.927741511727760
3.014074899256229,3.593253869157940e+03,12.071016277952074,0.927741264120747
3.064517781138420,3.593158864933932e+03,12.071024798345201,0.927741011836088
3.114960663020611,3.593063900439156e+03,12.071033477581558,0.927740754854520
3.165403544902802,3.592968975727285e+03,12.071042316304990,0.927740493157023
3.226540587842464,3.592853979876705e+03,12.071053243616026,0.927740169628824
3.287677630782127,3.592739042633709e+03,12.071064407257088,0.927739839112553
3.348814673721790,3.592624164091233e+03,12.071075808328700,0.927739501575697
3.409951716661453,3.592509344338626e+03,12.071087447915577,0.927739156986215
3.471088759601116,3.592394583463682e+03,12.071099327086985,0.927738805312521
3.532225802540779,3.592279881552668e+03,12.071111446897079,0.927738446523479
3.593362845480442,3.592165238690363e+03,12.071123808385245,0.927738080588388
3.654499888420105,3.592050654960089e+03,12.071136412576449,0.927737707476977
3.715636931359768,3.591936130443745e+03,12.071149260481565,0.927737327159391
3.776773974299431,3.591821665221843e+03,12.071162353097698,0.927736939606184
3.837911017239094,3.591707259373530e+03,12.071175691408463,0.927736544788308
3.899048060178757,3.591592912976626e+03,12.071189276384329,0.927736142677108
3.973491638898849,3.591453759364392e+03,12.071206152612360,0.927735643156584
4.047935217618942,3.591314694144380e+03,12.071223397686614,0.927735132730248
4.122378796339035,3.591175717453197e+03,12.071241013283341,0.927734611348610
4.196822375059128,3.591036829421032e+03,12.071259001052596,0.927734078962958
4.271265953779221,3.590898030175490e+03,12.071277362618865,0.927733535525339
4.345709532499313,3.590759319841639e+03,12.071296099581557,0.927732980988542
4.420153111219406,3.590620698542074e+03,12.071315213515614,0.927732415306083
4.494596689939499,3.590482166396970e+03,12.071334705972040,0.927731838432189
4.569040268659592,3.590343723524137e+03,12.071354578478489,0.927731250321777
4.643483847379684,3.590205370039075e+03,12.071374832539767,0.927730650930445
4.717927426099777,3.590067106055026e+03,12.071395469638338,0.927730040214451
4.807725735008717,3.589900442998483e+03,12.071420875179113,0.927729288399707
4.897524043917656,3.589733910529367e+03,12.071446842707976,0.927728519969843
4.987322352826595,3.589567508828165e+03,12.071473374704341,0.927727734851725
5.077120661735535,3.589401238076738e+03,12.071500473603297,0.927726932973534
5.166918970644474,3.589235098452730e+03,12.071528141798293,0.927726114264688
5.256717279553413,3.589069090129648e+03,12.071556381641930,0.927725278655817
5.346515588462353,3.588903213276955e+03,12.071585195446897,0.927724426078737
5.436313897371292,3.588737468060165e+03,12.071614585486902,0.927723556466421
5.526112206280231,3.588571854640934e+03,12.071644553997594,0.927722669752973
5.615910515189171,3.588406373177151e+03,12.071675103177412,0.927721765873603
5.705708824098110,3.588241023823016e+03,12.071706235188460,0.927720844764601
5.814864277839661,3.588040209475569e+03,12.071744866086389,0.927719701804732
5.924019731581211,3.587839590816826e+03,12.071784365060022,0.927718533183546
6.033175185322762,3.587639168103900e+03,12.071824735786068,0.927717338792754
6.142330639064312,3.587438941585413e+03,12.071865981868338,0.927716118526235
6.251486092805862,3.587238911502908e+03,12.071908106840914,0.927714872279941
6.360641546547413,3.587039078090987e+03,12.071951114169378,0.927713599951860
6.469797000288963,3.586839441577461e+03,12.071995007252450,0.927712301441971
6.578952454030514,3.586640002183522e+03,12.072039789423561,0.927710976652195
6.688107907772064,3.586440760123891e+03,12.072085463952385,0.927709625486350
6.797263361513615,3.586241715606969e+03,12.072132034046350,0.927708247850107
6.929012477397919,3.586001735048647e+03,12.072189440921107,0.927706549670656
7.060761593282223,3.585762042907374e+03,12.072248162465261,0.927704812634849
7.192510709166527,3.585522639518737e+03,12.072308203973408,0.927703036587099
7.324259825050831,3.585283525201904e+03,12.072369570619534,0.927701221375414
7.456008940935135,3.585044700264295e+03,12.072432267461959,0.927699366851248
7.587758056819439,3.584806165001800e+03,12.072496299445445,0.927697472869439
7.719507172703743,3.584567919699053e+03,12.072561671403848,0.927695539288131
7.851256288588047,3.584329964629703e+03,12.072628388062911,0.927693565968693
7.983005404472351,3.584092300056681e+03,12.072696454042768,0.927691552775642
8.114754520356655,3.583854926232452e+03,12.072765873860517,0.927689499576570
8.275843098759651,3.583565086620129e+03,12.072852599203298,0.927686934590157
8.436931677162647,3.583275682454566e+03,12.072941362964746,0.927684309372026
8.598020255565643,3.582986714135866e+03,12.073032172806288,0.927681623697918
8.759108833968639,3.582698182043576e+03,12.073125036177787,0.927678877349894
8.920197412371635,3.582410086536863e+03,12.073219960328366,0.927676070116010
9.081285990774632,3.582122427954893e+03,12.073316952310206,0.927673201790211
9.242374569177628,3.581835206617331e+03,12.073416018983339,0.927670272172181
9.403463147580624,3.581548422824830e+03,12.073517167020588,0.927667281067208
9.564551725983620,3.581262076859515e+03,12.073620402912177,0.927664228286038
9.761109985411167,3.580913274554917e+03,12.073749207554529,0.927660419503270
9.957668244838715,3.580565124944447e+03,12.073881141210965,0.927656518296497
10.154226504266262,3.580217628438058e+03,12.074016214626321,0.927652524353215
10.350784763693810,3.579870785404849e+03,12.074154438177594,0.927648437371939
10.547343023121357,3.579524596178377e+03,12.074295821891473,0.927644257061682
10.743901282548904,3.579179061057401e+03,12.074440375451422,0.927639983141751
10.940459541976452,3.578834180306795e+03,12.074588108206640,0.927635615341477
11.137017801403999,3.578489954158463e+03,12.074739029180959,0.927631153399956
11.377034880220890,3.578070507973282e+03,12.074927655191679,0.927625576886616
11.617051959037781,3.577652038452003e+03,12.075121063366915,0.927619859188126
11.857069037854671,3.577234545825739e+03,12.075319268458838,0.927613999885264
12.097086116671562,3.576818030262314e+03,12.075522283930937,0.927607998578496
12.337103195488453,3.576402491866764e+03,12.075730122712173,0.927601854886976
12.577120274305344,3.575987930682830e+03,12.075942798319188,0.927595568448002
12.817137353122234,3.575574346694732e+03,12.076160322889779,0.927589138916679
13.111647225916386,3.575068198828125e+03,12.076433875680557,0.927581053635748
13.406157098710537,3.574563521877012e+03,12.076714765971307,0.927572751849883
13.700666971504688,3.574060315469856e+03,12.077003012700228,0.927564233024785
13.995176844298840,3.573558579113870e+03,12.077298633752884,0.927555496661909
14.289686717092991,3.573058312202219e+03,12.077601645877650,0.927546542296923
14.584196589887142,3.572559514017378e+03,12.077912064742467,0.927537369498763
14.949946708977222,3.571942102719272e+03,12.078307905270790,0.927525673155485
15.315696828067303,3.571326953560063e+03,12.078715216567600,0.927513638614723
15.681446947157383,3.570714064495749e+03,12.079134021531312,0.927501265250805
16.047197066247463,3.570103433261333e+03,12.079564341090149,0.927488552507057
16.489316038787365,3.569368312361363e+03,12.080099911258431,0.927472731547235
16.931435011327267,3.568636482153466e+03,12.080653403039074,0.927456352269079
17.373553983867168,3.567907937420479e+03,12.081224819113524,0.927439415320379
17.911195531487465,3.567026404511357e+03,12.081942584929417,0.927418142538355
