time (yr),Tsurf (K),pH2O (bar),phi (vol_frac)
4.0978193283081055e-08,3317.6450836629433,1.8740856303882456,0.9751362635094414
4.3585896492004395e-07,3317.645083514836,1.874085630416759,0.9751362633736327
4.3995678424835205e-06,3317.6453620765424,1.874085576788515,0.9751362620155439
4.4036656618118286e-05,3317.645041901823,1.8740856384279219,0.9751362484346731
0.00044040754437446594,3317.6447278719743,1.8740856988834598,0.9751361126259048
0.004404135048389435,3317.6410768177193,1.874086401768131,0.9751347545474341
0.04404137283563614,3317.604489171436,1.8740934454031772,0.9751211739949581
0.44041377305984497,3317.2350887743437,1.8741645545115213,0.9749852218001569
4.404137771576643,3313.561964668204,1.8748710656240835,0.9736127207204238
44.04137774929404,3278.4627715739434,1.8815705607927737,0.9587469463484876
144.14137775078416,3200.900877387421,1.8960371076217615,0.9150705716568649
182.65455143153667,3174.491406914177,1.9008544972205677,0.8969457975398402
221.16772511601448,3149.6527079277084,1.9053341746396106,0.8784515796833221
321.2677251175046,3099.3612855308907,1.9870087499167273,0.8378381296456962
414.12208884209394,3058.204114108959,2.0682550527385835,0.8039127026022984
514.2220888435841,3017.97278490206,2.1549824104764053,0.7703353216950626
614.3220888413489,2981.333231664099,2.240852237323154,0.7394569391031064
714.422088842839,2947.79842206641,2.325881981972609,0.7109372682205887
814.5220888443291,2916.9631243645954,2.410041602505205,0.6845123465440807
914.622088842094,2888.1711043676455,2.493503685262151,0.6599171547023384
1014.7220888435841,2861.1960915601385,2.5766345491526796,0.6368541216390682
1114.822088841349,2835.929836825816,2.659449185030173,0.6151683523428081
1214.922088842839,2812.1844703092347,2.741974493069475,0.5947281979590833
1315.0220888443291,2789.805277068609,2.8242368678427883,0.575418551205947
1415.122088842094,2768.6558259505346,2.906266831668629,0.5571375320079603
1515.222088843584,2748.624840321122,2.988090738732299,0.5397958418112343
1615.322088841349,2729.6065443199604,3.0697387990140617,0.5233138466886761
1715.422088842839,2711.514545420923,3.1512399869501446,0.5076204797226324
1815.5220888443291,2694.270945102804,3.2326184617416582,0.49265297744391895
1915.622088842094,2677.807266870184,3.3138994868302847,0.4783543996415537
2015.722088843584,2662.071991919797,3.395104992386668,0.46467312356548657
2115.822088841349,2647.056491820492,3.4761813091677283,0.4515728832345608
2215.922088842839,2632.6744971966314,3.5571102100702,0.43901618843654405
2316.022088844329,2618.8809392431795,3.6379155456595904,0.4269596452589247
2416.122088842094,2605.633770960315,3.718616811698986,0.41536287702007346
2516.222088843584,2592.899157787115,3.799229167559097,0.4041876305658327
2616.322088841349,2580.6407340185624,3.8797709151632294,0.39339689359736546
2716.422088842839,2568.831291939959,3.9602540834080897,0.38295677989700017
2816.522088844329,2557.440468234244,4.040696407968359,0.37283892363656435
2916.622088842094,2546.44450924934,4.121108937169912,0.36302922181199865
3016.722088843584,2535.82006794659,4.201506956282241,0.35353142853074265
3116.822088841349,2525.546262871855,4.28190018095188,0.3443601982972824
3216.922088842839,2515.6042586834187,4.362298735564609,0.33552664624753675
3317.022088844329,2505.975456367655,4.442713193247398,0.32703300257053675
3417.122088842094,2496.644772484703,4.523150836134975,0.31887432527147924
3517.222088843584,2487.5950487511936,4.603620643019659,0.3110408646727822
3617.322088841349,2478.739200938602,4.684230292008915,0.303512576581705
3717.422088842839,2470.0812204566096,4.76523039687597,0.2962547838807976
3817.522088844329,2461.634342594855,4.846639553417389,0.2892557016211705
3917.622088842094,2453.390587072944,4.928470838035437,0.2825044633409475
4017.722088843584,2445.3419000426848,5.0107345122298375,0.275990431531579
4117.822088841349,2437.4788788866576,5.093441896633091,0.26970319930434417
4217.922088842839,2429.7948002801027,5.176605902816654,0.2636324760997838
4318.022088844329,2422.2831766137056,5.260232851213459,0.2577688927098465
4418.122088842094,2414.934573560299,5.344338660532642,0.25210284702624675
4518.222088843584,2407.745450548566,5.428935256108816,0.24662539078787107
4618.322088841349,2400.709488466049,5.514027738906057,0.24132848795766004
4718.422088842839,2393.8199606471057,5.599627526973774,0.23620408528222697
4818.522088844329,2387.0724543043507,5.685745072290293,0.2312446297769582
4918.622088842094,2380.46226598179,5.7723872726775864,0.22644305889738073
5018.722088843584,2373.984648386595,5.859559357234558,0.22179287627175914
5118.822088841349,2367.6336055376764,5.9472774789463525,0.2172872505296953
5218.922088842839,2361.4061982390854,6.035548874639449,0.21292024884277794
5319.022088844329,2355.2988468395242,6.124378090084995,0.20868626636012838
5419.122088842094,2349.307198649218,6.21376942988301,0.20458004177977177
5519.222088843584,2343.4271328226423,6.303736277549403,0.20059621491496693
5619.322088841349,2337.656884530204,6.394280824433487,0.19673003346491258
5719.422088842839,2331.9925674302085,6.485405964169997,0.19297709734208446
5819.522088844329,2326.4297989739166,6.577117181731385,0.18933304071403312
5919.622088842094,2320.966067611928,6.669430856896128,0.18579327184927288
6019.722088843584,2315.5990040031647,6.762351219191967,0.18235389168995872
6119.822088841349,2310.3263393247817,6.855876581932562,0.17901145522390405
6219.922088842839,2305.1457584731006,6.950009679995661,0.17576245361434442
6320.022088844329,2300.0527906600923,7.044760349914122,0.1726032914198801
6420.122088842094,2295.0470463059637,7.140132595330627,0.1695307403454124
6520.222088843584,2290.1264234556,7.236129058173817,0.16654177551344188
6620.322088841349,2285.28864371341,7.332747637227759,0.16363365247141323
6720.422088842839,2280.5304890081015,7.429990002001294,0.1608036379199889
6820.522088844329,2275.8501556891915,7.527869610623226,0.15804867413631543
6920.622088842094,2271.246648848087,7.62638555110368,0.15536638744044107
7020.722088843584,2266.718370997766,7.725535523347653,0.15275446451021432
7120.822088841349,2262.2638875762923,7.825319282155567,0.15021057899085807
7220.922088842839,2257.8799508884695,7.925737016574464,0.14773256821123354
7321.022088844329,2253.5652940654877,8.026800771749677,0.14531804649162264
7421.122088842094,2249.318795449408,8.12850936386445,0.14296503823742657
7521.222088843584,2245.139639914737,8.230860398135713,0.14067161753351232
7621.322088841349,2241.026346209997,8.333850230208897,0.13843604852989522
7721.422088842839,2236.977521070734,8.43747492716536,0.13625664820482708
7821.522088844329,2232.9904632993553,8.541737587295662,0.13413154995102078
7921.622088842094,2229.0269300634245,8.646801793269915,0.1320561088607735
8021.722088843584,2225.1085043607095,8.752865204276965,0.13002510220189986
8121.822088841349,2221.2377625794143,8.859938038708966,0.12803743769604012
8221.922088842839,2217.413214518559,8.968030307054807,0.12609196475664855
8322.02208884433,2213.634867803727,9.077147185408272,0.12418780256465567
8422.122088842094,2209.899302532871,9.187313739610815,0.12232368540916308
8522.222088843584,2206.208254227673,9.298541123263506,0.1204985645364034
8622.322088841349,2202.5607705374373,9.41083996040418,0.11871154842288723
8722.422088842839,2198.9566666015075,9.524214695620682,0.11696182765394038
8822.52208884433,2195.3949921142466,9.638674332249007,0.1152485390462095
8922.622088842094,2191.8755077669534,9.754222694603525,0.11357093109100092
9022.722088843584,2188.3964953539394,9.87087419712889,0.11192810434176288
9122.822088841349,2184.9579167378033,9.988648092209015,0.1103191379381004
9222.922088842839,2181.559498651335,10.107548737895966,0.10874334497005445
9323.02208884433,2178.201397211082,10.227583697275792,0.10720002325043458
9423.122088842094,2174.882549300837,10.34876153898512,0.10568841698481439
9523.222088843584,2171.6027333328802,10.47108567325826,0.10420792637974821
9623.322088841349,2168.361886628396,10.594562332927088,0.10275793341377545
9723.422088842839,2165.158057770999,10.719207097349654,0.10133771537908891
9823.52208884433,2161.991768742337,10.845036234695172,0.09994646421670766
9923.622088842094,2158.862776797122,10.972055150198923,0.09858369565763629
10023.722088843584,2155.7710282016524,11.10026909593963,0.09724884109315782
10123.822088841349,2152.715787622188,11.229683790284355,0.09594129360686912
10223.922088842839,2149.696966393134,11.360304496728183,0.09466061380794992
10324.02208884433,2146.7143448906895,11.492137507954135,0.09340614722877781
10424.122088842094,2143.7672481147692,11.625188331894538,0.09217750601073409
10524.222088843584,2140.8545736470064,11.759474138415296,0.09097398613569416
10624.322088841349,2137.97705591623,11.895005682068303,0.08979513008739012
10724.422088842839,2135.1343725962665,12.031786797727385,0.08864048893400003
10824.52208884433,2132.3262612189055,12.169823015794911,0.08750951248483495
10924.622088842094,2129.5526838463375,12.309114405265575,0.08640189152021223
11024.722088843584,2126.8131907220168,12.449667562922153,0.08531716536763782
11124.822088841349,2124.107665329567,12.591483519947191,0.08425488691693084
11224.922088842839,2121.4357484631487,12.73456622877811,0.08321465344363496
11325.02208884433,2118.796642799703,12.878927547114987,0.08219602824446956
11425.122088842094,2116.190830483256,13.024576690275195,0.0811985746474736
11525.222088843584,2113.617843538465,13.1715127897803,0.08022193110228795
11625.322088841349,2111.0777789384597,13.319742553751755,0.07926570795630382
11725.422088842839,2108.570574316995,13.469264771779034,0.07832954436063487
11825.52208884433,2106.095798778172,13.620077224026513,0.07741311301784554
11925.622088842094,2103.65332573729,13.772183741092496,0.07651604935243216
12025.722088843584,2101.243384797871,13.925579453961184,0.07563804040025715
12125.822088841349,2098.865352119918,14.080263073311752,0.07477875142893832
12225.922088842839,2096.5186634251736,14.236242783837485,0.07393780691553278
12326.02208884433,2094.2035903441174,14.393523696676798,0.07311485397864531
12426.122088842094,2091.9199685277244,14.552101658174058,0.07230960008423212
12526.222088843584,2089.6678920173204,14.711973858073907,0.07152173365177968
12626.322088841349,2087.446869284408,14.873135288409964,0.07075096409915049
12726.422088842839,2085.257059825974,15.035579435030156,0.06999701656785927
12826.52208884433,2083.0982556244753,15.199299528400466,0.06925952520122695
12926.622088842094,2080.970096231655,15.364286677686971,0.06853828065266548
13026.722088843584,2078.8483022821156,15.53082669925817,0.06783179311026569
13126.822088841349,2076.7503001851014,15.699199688421603,0.06713869798907882
13226.922088842839,2074.675664234821,15.869422628656455,0.06645874563176965
13327.02208884433,2072.6243346788146,16.04151681916052,0.06579183740425062
13427.122088842094,2070.596539950917,16.2155003582865,0.06513777902795119
13527.222088843584,2068.592235715521,16.391387304459744,0.064496318366908
13627.322088841349,2066.611451118214,16.569190828541938,0.06386741090731327
13727.422088842839,2064.65434562876,16.748920234814197,0.06325081512304627
13827.52208884433,2062.720616779312,16.93058641790766,0.06264640379572686
13927.622088842094,2060.810431099637,17.11419474844588,0.06205403960983842
14027.722088843584,2058.923718897071,17.299760400868205,0.061473475728362266
14127.822088841349,2057.060313627309,17.487289735441735,0.06090464072640039
14227.922088842839,2055.2204449946553,17.676785632404567,0.060347275384015894
14328.02208884433,2053.4039760561795,17.868254539235203,0.05980130793269056
14428.122088842094,2051.6103630697976,18.061698259417657,0.059266480808453606
14528.222088843584,2049.8397252825553,18.257132162223783,0.05874264785414454
14628.322088841349,2048.092179310928,18.4545520964516,0.05822963680644818
14728.422088842839,2046.3673316332222,18.65395895241617,0.05772722761405893
14828.52208884433,2044.6654090879942,18.855345218100236,0.05723534755788811
14928.622088842094,2042.986155867192,19.058703706767215,0.05675369079179878
15028.722088843584,2041.3294748728708,19.264022934230642,0.056282182559805265
15128.822088841349,2039.6951259200318,19.471295383470185,0.055820642718848186
15228.922088842839,2038.0830290437186,19.68049764648235,0.0553687992444716
15329.02208884433,2036.492970597066,19.891611086911354,0.0549265697789737
15429.122088842094,2034.9248550743177,20.104613266218873,0.05449376556694677
15529.222088843584,2033.378173154766,20.319482239943834,0.05407015355651956
15629.322088841349,2031.8529482269116,20.53618685726742,0.0536555423384954
15729.422088842839,2030.3489635415704,20.75469249568353,0.0532497916376834
15829.52208884433,2028.8656494749935,20.97496413561035,0.0528526970134563
15929.622088842094,2027.4025531487878,21.196972393499976,0.05246405088606621
16029.722088843584,2025.9597498869098,21.420680550510227,0.05208358638429738
16129.822088841349,2024.5366370994284,21.646038985346877,0.051711165628404394
16229.922088842839,2023.1332041919795,21.872996966617404,0.051346591943497034
16330.02208884433,2021.7487313154763,22.10149386185183,0.050989682530175044
16430.122088842094,2020.3831935030007,22.331478794278425,0.0506402154771662
16530.222088843584,2019.035926428596,22.562884478291156,0.05029799418563774
16630.32208884135,2017.7065634502621,22.79564387346313,0.049962832121821295
16730.42208884284,2016.3948293677859,23.029684085592663,0.04963451949107953
16830.52208884433,2015.1002457637583,23.264931464194497,0.04931284854308803
16930.622088842094,2013.8223813220582,23.50130979765132,0.04899762683814283
17030.722088843584,2012.5608070292797,23.73873724809365,0.048688667956722775
17130.82208884135,2011.3149553429116,23.97712530719335,0.048385783421781584
17230.92208884284,2010.0844711819957,24.216385173600415,0.048088780316300386
17331.02208884433,2008.868964877072,24.456428345663365,0.047797462529915034
17431.122088842094,2007.6676470256857,24.697160828357937,0.04751164646890214
17531.222088843584,2006.4804309529075,24.938486327012097,0.04723115377922884
17631.32208884135,2005.3066831182373,25.18030232684096,0.046955808227634094
17731.42208884284,2004.146028647605,25.42251296720646,0.04668542767553997
17831.52208884433,2002.997968501653,25.66501608902374,0.0464198271271406
17931.622088842094,2001.8620735032516,25.907712381560664,0.046158855805708075
18031.722088843584,2000.7379904544237,26.1504923018521,0.04590236039561686
18131.82208884135,1999.625317444516,26.393250803592014,0.04565018566977603
18231.92208884284,1998.5233640292847,26.63588190399455,0.04540218094331167
18332.02208884433,1997.4294517420499,26.878285012644547,0.045158215863933794
18432.122088842094,1996.3323052908954,27.121005839474012,0.044917494427713624
18532.222088843584,1995.2409259230678,27.364219458132993,0.0446796594457924
18632.32208884135,1994.1552423689986,27.60783940004807,0.044444596057507585
18732.42208884284,1993.0746325279,27.851772801353153,0.044212208170333965
18832.52208884433,1991.9991737131925,28.095930922047778,0.043982371577312676
18932.622088842094,1990.9283438763177,28.340217378665724,0.04375501806403579
19032.722088843584,1989.8620362646946,28.58454303221927,0.04353007453752193
19132.82208884135,1988.8000028252495,28.828813081898367,0.0433074633625098
19232.92208884284,1987.7420584046051,29.0729318109736,0.043087238176414445
19333.02208884433,1986.688087463201,29.316815191581828,0.04286945614245069
19433.122088842094,1985.6376567962536,29.560373805590114,0.04265402962421671
19533.222088843584,1984.5909801214611,29.803517284932692,0.04244091663200923
19633.32208884135,1983.5476400448501,30.046158564895162,0.04223004342482484
19733.42208884284,1982.5076127337604,30.288210456251228,0.04202136692070726
19833.52208884433,1981.4707252029345,30.52959965809713,0.0418148336364367
19933.622088842094,1980.437009356289,30.77024337509957,0.041610393722470544
20000.0,1979.7532891100725,30.929363974084897,0.0414759658257522
20000.0,1979.7532891100725,30.929363974084897,0.0414759658257522
20000.00000004098,1979.7532889880013,30.929363974164986,0.04147596582567221
20000.00000043586,1979.7532895459915,30.92936397518212,0.04147596582487202
20000.000004399568,1979.7532901039756,30.92936398474483,0.04147596581687052
20000.000044036657,1979.7532880638323,30.929364079451293,0.041475965736854754
20000.000440407544,1979.7532860236468,30.92936502873721,0.04147596493669692
20000.00440413505,1979.7532249173612,30.929374516765275,0.041475956935039186
20000.044041372836,1979.7528605474342,30.929469425607117,0.04147587691953671
20000.44041377306,1979.7487669729064,30.930418459290774,0.041475076764044536
20004.404137771577,1979.70799671591,30.939907901720474,0.041467075906259906
20044.041377749294,1979.3003777922877,31.034727847298747,0.041387264993799876
20440.41377754882,1975.251047504173,31.974299952321807,0.04060624824899249
22102.872552689165,1958.868006932878,35.67452109437686,0.03764899323034888
23765.331327833235,1943.8087017370376,38.86566726660972,0.03518203139924424
25314.79663510993,1931.4061298658119,41.34407898653113,0.03330370341944611
26926.548790808767,1920.4081482052459,43.43923511098306,0.03174476035872202
28660.814806506038,1910.7055502226885,45.21109405428415,0.03045105481129048
30576.53860362619,1902.135467525233,46.70817280251349,0.029378261745788874
32466.489423085004,1895.3346195031486,47.84813607473359,0.028574917654888846
35090.08989986777,1888.1249146596972,49.006732990316216,0.027771639536515787
38132.12139335275,1882.3015090603485,49.899429098923534,0.027161990086185295
41692.74768034369,1877.8894413947637,50.54648402924693,0.026725085268957467
46146.732452552766,1874.5942813793065,51.028817817872095,0.02641335373521347
52693.59228940308,1871.9609493136911,51.46322814145322,0.026172799407771695
61130.24613953009,1870.1215842195807,51.78619122043442,0.02600949554881401
71464.9100928083,1868.4581658107604,52.07920059094265,0.02586535390341213
85114.91279549524,1866.1788928460305,52.471494578187176,0.025673371803698886
98764.9154981859,1863.9694010299922,52.84269061335172,0.02549341571895467
111437.9138793908,1861.78777474805,53.198557068620964,0.02532171510751341
124110.91226059943,1859.7419331871347,53.524423050573496,0.025166040896106513
136365.0215121433,1857.5508517629955,53.86227812606905,0.025005051583640872
148619.13076369092,1855.6139023444293,54.15405463930206,0.024867593023585596
159503.61394876242,1853.5504240391188,54.45401788912795,0.02472611946159377
170388.0971338302,1851.841693383926,54.69746651833027,0.02461281206783666
181326.1971275322,1849.7174847104832,54.98937387249454,0.024476612345091894
192264.29712123424,1848.0383528901223,55.21521613190175,0.024372623374919536
202133.20164355636,1846.0078672373595,55.478161312423815,0.024250947814881598
212002.1061658822,1844.4815873760285,55.6721596024318,0.024162460137293118
222175.54226403683,1842.3793992531778,55.9297042932126,0.024044505408091967
232348.97836218774,1840.8641192631374,56.1114641497788,0.02396229044393564
241461.99193303287,1838.8414812794229,56.34497927146724,0.02385596566062339
250575.005503878,1837.4778013566156,56.499652651987006,0.02378655708579711
260981.52758305892,1835.118732217995,56.75684980235896,0.023670354065354424
269151.9684705809,1834.0542214649618,56.87045624315566,0.023619638149929702
277322.4093581028,1832.1853393898775,57.06426818665467,0.02353275639348911
287158.3030660711,1830.6782423760976,57.21743093738297,0.02346487123777454
295335.7477679029,1828.72116915986,57.409370436701685,0.023379301658067165
303513.1924697384,1827.4916965916257,57.527764853657686,0.023327143754979705
313394.1250353381,1825.0976187505325,57.7502163151121,0.02322854430061147
320766.5133032203,1824.2155233957653,57.83003811821171,0.023193352090067784
