time (yr),Tsurf (K),pH2O (bar),phi (vol_frac)
4.0978193283081055e-08,3280.412466866139,0.491750926791131,0.9751362635056112
4.3585896492004395e-07,3280.412467028691,0.49175092678475757,0.975136263331502
4.3995678424835205e-06,3280.4127285400523,0.49175091653175507,0.9751362615904108
4.4036656618118286e-05,3280.41246387814,0.49175092690827377,0.9751362441795021
0.00044040754437446594,3280.412465830955,0.4917509268316575,0.9751360700706139
0.004404135048389435,3280.407835891068,0.4917511083556066,0.9751343289924803
0.04404137283563614,3280.3617924996734,0.4917529135314103,0.9751169165127439
0.44041377305984497,3279.9025166269803,0.4917709172523805,0.9749425570576744
4.404137771576643,3275.3306241335194,0.49194987539591767,0.9731765567666885
44.04137774929404,3231.929946173808,0.4936251140971325,0.9535780851221923
144.14137775078416,3137.748094397451,0.4971143505074967,0.8941981940120083
158.65174980461597,3125.5908550898616,0.49755026212713627,0.8849317344472775
173.16212186217308,3113.755343380072,0.49797147310133677,0.8755722558537379
262.48115948587656,3056.3153639945617,0.5225686956821708,0.8275112725073757
343.43314976617694,3010.5379893429676,0.5468345766596817,0.7883365160513388
443.53314976394176,2959.7604252658007,0.5768844793190412,0.7442113771117363
543.6331497654319,2914.5140282934094,0.60689141286841,0.7042705665703162
643.733149766922,2873.9023924229355,0.6367676662308277,0.6680016331920016
743.8331497646868,2837.2097945694322,0.6664477104396627,0.6349603301480075
843.9331497661769,2803.887532638843,0.6958832258234756,0.604760608098094
944.0331497639418,2773.472163302957,0.7250363346860282,0.577071891852747
1044.1331497654319,2745.5954807172393,0.7538758636368381,0.5516104359925085
1144.233149766922,2719.9618321772327,0.782375902331897,0.5281317271190152
1244.3331497646868,2696.310047630523,0.8105137676037936,0.5064254238067032
1344.433149766177,2674.1716135542765,0.8383188410487096,0.4862797609164598
1444.5331497639418,2653.3699253957648,0.8659250796077572,0.46743598345353343
1544.6331497654319,2633.893292113475,0.8933270300014738,0.4497631197355862
1644.733149766922,2615.6180986396553,0.9205121993067107,0.4331510909163474
1744.8331497646868,2598.4393842918803,0.9474682411646259,0.4174985245374687
1844.933149766177,2582.2646216593794,0.9741835164472707,0.4027103642649424
1945.0331497639418,2567.020187101428,1.0006453497842192,0.38869804829922644
2045.1331497654319,2552.6258548677674,1.0268432717365865,0.3753830506595613
2145.233149766922,2539.018701683303,1.052765653209789,0.36271563562473824
2245.333149764687,2526.1459287186226,1.078402366973378,0.3506916253096223
2345.433149766177,2513.948790445406,1.1037421298582504,0.3393302879857308
2445.5331497639418,2502.387323374997,1.128775143358547,0.32863420520609754
2545.633149765432,2491.4116614083223,1.1534925299495624,0.31858422526505586
2645.733149766922,2480.98968780769,1.177884782989319,0.3091488405810459
2745.833149764687,2471.08165837604,1.2019436067151914,0.30029119105111274
2845.933149766177,2461.658908765508,1.2256608959061122,0.2919733182123631
2946.0331497639418,2452.6904543182904,1.249027285851733,0.2841587664987295
3046.133149765432,2444.1476742731106,1.2720373426114715,0.27681177811270935
3146.233149766922,2436.0090244993926,1.2946830900643682,0.2698997336878221
3246.333149764687,2428.253937313875,1.316957785368834,0.26339217975540935
3346.433149766177,2420.8700188192183,1.3388452511435296,0.25726359502491286
3446.5331497639418,2413.8305639788005,1.3603352817247816,0.251488967991848
3546.633149765432,2407.1139192358473,1.381423845749274,0.24604370797189357
3646.733149766922,2400.7040548570667,1.402108610790174,0.24090489829639194
3746.833149764687,2394.583591746727,1.4223862986205247,0.2360518184253066
3846.933149766177,2388.738506945968,1.4422552295437225,0.2314652741046126
3947.0331497639418,2383.1532362929656,1.4617141657672887,0.22712759925474596
4047.133149765432,2377.815843505142,1.4807617136803584,0.22302262097803452
4147.233149766922,2372.713124250556,1.4993969943948064,0.21913547725167987
4247.333149764687,2367.834435283903,1.5176204830820783,0.2154523319199972
4347.433149766177,2363.1673381796845,1.535432594842413,0.21196046104783028
4447.533149763942,2358.7021023810207,1.5528349273645083,0.20864801250519563
4547.633149765432,2354.3936206701965,1.5698413569317802,0.20550200553861037
4647.733149766922,2350.203447071618,1.5865300171271393,0.20249909152499657
4747.833149764687,2346.165550524161,1.6029187911377507,0.1996280977867663
4847.933149766177,2342.27398281002,1.6190066500199922,0.1968823407928281
4948.033149763942,2338.523770692019,1.6347944244194104,0.19425512297463612
5048.133149765432,2334.907829888456,1.6502824796498248,0.19174044677052252
5148.233149766922,2331.421429271475,1.6654709092897417,0.18933269456638366
5248.333149764687,2328.0594126737587,1.6803608111922734,0.18702647604931832
5348.433149766177,2324.816451168291,1.6949537183185561,0.18481667897187742
5448.533149763942,2321.6884328939072,1.7092508593880027,0.18269866115426414
5548.633149765432,2318.6711631053963,1.7232537716444032,0.1806679506668055
5648.733149766922,2315.7603030902815,1.736964691462176,0.17872028897102601
5748.833149764687,2312.9518800571386,1.750384718425285,0.17685189163959436
5848.933149766177,2310.2422604028507,1.7635163702805094,0.17505899148322276
5949.033149763942,2307.627367456346,1.7763618260640937,0.1733380662082173
6049.133149765432,2305.1029219137154,1.788923242397923,0.17168588624860173
6149.233149766922,2302.666921078942,1.8012047980863262,0.1700991680511725
6249.333149764687,2300.3151737446715,1.8132087483555193,0.1685749242595361
6349.433149766177,2298.044807621371,1.8249385053771636,0.16711041431269572
6449.533149763942,2295.8532231141285,1.8363975852522547,0.165702905318885
6549.633149765432,2293.7376618449102,1.847588378511764,0.1643499560871618
6649.733149766922,2291.6950989051147,1.8585147028660471,0.16304917586518233
6749.833149764687,2289.7225080721228,1.8691799705370171,0.1617983249014956
6849.933149766177,2287.818007469852,1.8795877039147713,0.16059525860911603
6950.033149763942,2285.9788702168685,1.8897416111800736,0.15943794363390598
7050.133149765432,2284.202928950787,1.8996459371104175,0.15832437723985535
7150.233149766922,2282.4874700484806,1.909303675461878,0.1572527982154824
7250.333149764687,2280.8302742357573,1.9187208036506525,0.15622128944539176
7350.433149766177,2279.229399991861,1.9279000874842362,0.155228310472852
7450.533149763942,2277.682385148673,1.936846686983788,0.15427209079010284
7550.633149765432,2276.189654242881,1.9455642022272994,0.15335127410627017
7650.733149766922,2274.7467594093014,1.9540566220504956,0.152464327594707
7750.833149764687,2273.352629919935,1.9623285760966152,0.15160993066849893
7850.933149766177,2272.0060155085202,1.9703837688240862,0.15078676746422817
7951.033149763942,2270.7055983954556,1.9782262462237334,0.1499935980482514
8051.133149765432,2269.4484281957534,1.985860672698175,0.14922922300781363
8151.233149766922,2268.2339718990374,1.993290844890817,0.14849253672952242
8251.333149764687,2267.060850640764,2.0005209552676875,0.1477824201838041
8351.433149766177,2265.9271554864395,2.007554886946042,0.14709786313442938
8451.533149763942,2264.830972109641,2.0143981132301563,0.14643776756869298
8551.633149765432,2263.773005374978,2.021053543285846,0.14580129781902834
8651.733149766922,2262.74985715237,2.0275257480987716,0.1451875018759664
8751.833149764687,2261.7613995724,2.0338183830247294,0.1445955532030429
8851.933149766177,2260.8062967683445,2.0399353655765013,0.14402462574611433
8952.033149763942,2259.8829431562626,2.0458809191825282,0.14347391051349567
9052.133149765432,2258.990237895842,2.0516608118636417,0.14294248084807845
9152.233149766922,2258.127198819227,2.0572773831042275,0.14242971315848194
9252.333149764687,2257.2928787700375,2.062735470866163,0.14193485348217347
9352.433149766177,2256.4871840376927,2.0680383270137175,0.14145728667598095
9452.533149763942,2255.7076082014155,2.0731899084385907,0.14099636842562394
9552.633149765432,2254.9544208827388,2.0781943642399514,0.14055144427653302
9652.733149766922,2254.226284350701,2.083054900582581,0.14012188922804
9752.833149764687,2253.520795121209,2.0877754154060972,0.1397071925488042
9852.933149766177,2252.841981062062,2.092358885383218,0.13930686979410378
9953.033149763942,2252.183735510748,2.096809387546586,0.13892026116448514
10053.133149765432,2251.5479763997964,2.1011296528860175,0.13854699940518014
10153.233149766922,2250.933051037344,2.1053238007872035,0.13818654398914706
10253.333149764687,2250.339041737297,2.1093948515628287,0.1378383797807834
10353.433149766177,2249.763778711476,2.113345689426737,0.13750220240749972
10453.533149763942,2249.208061458689,2.1171801516334092,0.13717740777950999
10553.633149765432,2248.671272652884,2.120901634676597,0.13686367916275094
10653.733149766922,2248.1513339732765,2.124511410342499,0.13656067684263387
10753.833149764687,2247.6489539840086,2.128014255851465,0.1362679499879197
10853.933149766177,2247.163514917813,2.1314121616136066,0.13598513904547235
10954.033149763942,2246.693787447447,2.134708864026476,0.13571190244107126
11054.133149765432,2246.2395199310326,2.137906842110411,0.13544782668353703
11154.233149766922,2245.8004104633173,2.141008595545464,0.1351927218367879
11254.333149764687,2245.3760869751122,2.1440159354010686,0.1349462326410041
11354.433149766177,2244.965137184985,2.146932977261185,0.13470803031241319
11454.533149763942,2244.568067797255,2.1497620907364663,0.13447779875519295
11554.633149765432,2244.1839056647145,2.1525056121250152,0.13425525024938634
11654.733149766922,2243.812543957686,2.155165402437676,0.13404022506188987
11754.833149764687,2243.4539444238944,2.1577439243173058,0.13383239362460547
11854.933149766177,2243.10606654343,2.1602444649828763,0.1336314544347183
11955.033149763942,2242.770245688381,2.162668415419808,0.13343727092225904
12055.133149765432,2242.445629705692,2.1650176493799393,0.13324957143306368
12155.233149766922,2242.1313689643375,2.1672950634611667,0.13306810942044525
12255.333149764687,2241.8273831446872,2.16950245268139,0.13289272280365094
12355.433149766177,2241.532871048598,2.171642695961202,0.13272310528489378
12455.533149763942,2241.248458027397,2.173717222569424,0.13255907328032152
12555.633149765432,2240.9733312355097,2.1757271272578653,0.13240055663624514
12655.733149766922,2240.707489994012,2.177675893964545,0.1322472389372395
12755.833149764687,2240.4502139626334,2.1795640200809814,0.13209899660132482
12855.933149766177,2240.201150115908,2.1813936666830887,0.13195565851066385
12956.033149763942,2239.960176430242,2.1831667100688295,0.13181706015508812
13056.133149765432,2239.7273308665262,2.1848847382469008,0.13168305840984396
13156.233149766922,2239.5017096906995,2.1865490820494777,0.13155348763156458
13256.333149764687,2239.283680573296,2.188161962960225,0.13142814203584205
13356.433149766177,2239.0728381753574,2.1897253708143003,0.13130687401321173
13456.533149763942,2238.8685934915597,2.1912400836649564,0.13118961442176005
13556.633149765432,2238.671131514575,2.192707869186449,0.13107619615781302
13656.733149766922,2238.4803129939683,2.194129837699312,0.1309664867162123
13756.833149764687,2238.295217159152,2.1955073904375606,0.13086035502471702
13856.933149766177,2238.1166384442586,2.1968426007545157,0.13075766302913513
13957.033149763942,2237.9433895040906,2.198136099745872,0.13065834054146153
14057.133149765432,2237.775903715876,2.1993890926446493,0.130562278580686
14157.233149766922,2237.613718526885,2.20060244190767,0.13046939754693912
14257.333149764687,2237.4574901232922,2.201778104075188,0.1303795079906913
14357.433149766177,2237.3057775232346,2.202917097701797,0.1302925242685377
14457.533149763942,2237.158811633399,2.204021067506469,0.13020833178906127
14557.633149765432,2237.0164894560526,2.205090889385511,0.13012685251939293
14657.733149766922,2236.8782946574966,2.2061270304906686,0.13004804111311294
14757.833149764687,2236.7450260235014,2.207130694393324,0.1299717937254639
14857.933149766177,2236.6162126170834,2.208104070274747,0.12989793701655233
14958.033149763942,2236.49118219446,2.20904681287926,0.12982648753588236
15058.133149765432,2236.3707306040797,2.209960471394467,0.12975728707490602
15158.233149766922,2236.2533484070423,2.21084518697783,0.12969035231022993
15258.333149764687,2236.1400180765445,2.2117026181793116,0.1296255473740891
15358.433149766177,2236.0302412951,2.2125328491659353,0.12956286907299627
15458.533149763942,2235.924231534146,2.213337211812094,0.12950220293323528
15558.633149765432,2235.8214757411433,2.2141171009745637,0.1294434352964415
15658.733149766922,2235.72209792792,2.2148726669274925,0.12938655722134618
15758.833149764687,2235.625687649935,2.215604832409163,0.1293314917327418
15858.933149766177,2235.5322402709444,2.21631415587966,0.12927818498363383
15959.033149763942,2235.4420545514554,2.217001141187335,0.12922659590042695
16059.133149765432,2235.3546501456626,2.217667091847609,0.12917660742268186
16159.233149766922,2235.269549990878,2.2183126248896428,0.12912819349898746
16259.333149764687,2235.1880018854795,2.2189380450120115,0.12908132178292434
16359.433149766177,2235.1083691078456,2.2195436111830227,0.1290359722361884
16459.53314976394,2235.0315078480166,2.2201302108053964,0.12899207607917393
16559.633149765432,2234.9569829884645,2.220698975408654,0.12894954238907244
16659.733149766922,2234.8846888700673,2.2212494112308683,0.12890840894468886
16759.833149764687,2234.815141240587,2.2217838968402748,0.1288684920269959
16859.933149766177,2234.747065376037,2.222300899426478,0.12882990512964754
16960.03314976394,2234.68176456069,2.222802442871046,0.1287924972855113
17060.133149765432,2234.618321232245,2.22328869297967,0.12875624444646297
17160.233149766922,2234.5568489764537,2.223759380947143,0.1287211822318466
17260.333149764687,2234.497479522982,2.2242159984809526,0.1286871798988374
17360.433149766177,2234.4392087933506,2.224658748001522,0.12865422425242795
17460.53314976394,2234.3832968024617,2.225087554028853,0.1286223135767009
17560.633149765432,2234.3289987449634,2.225503446249271,0.12859137416794184
17660.733149766922,2234.2763501182135,2.2259070238840626,0.1285613790015882
17760.833149764687,2234.226023498584,2.226301895059231,0.1285323424735745
17860.933149766177,2234.1765696186467,2.226689228014824,0.1285042514732076
17961.03314976394,2234.128900696435,2.2270692502243516,0.12847704387379513
18061.133149765432,2234.08292016973,2.2274420377817243,0.12845067319676431
18161.233149766922,2234.0381605532525,2.2278073332549373,0.1284251332686199
18261.333149764687,2233.994938592124,2.228165099030978,0.12840040215078585
18361.433149766177,2233.9532551821803,2.2285150907866993,0.12837648308732766
18461.53314976394,2233.9126470163064,2.2288580237317737,0.12835327300141636
18561.633149765432,2233.873063396981,2.2291933477582977,0.12833080510406025
18661.733149766922,2233.835519191073,2.229521324596771,0.12830903725653398
18761.833149764687,2233.798165118946,2.229841812160101,0.12828796908760126
18861.933149766177,2233.762897186833,2.2301551384183305,0.12826754389730488
18962.03314976394,2233.728614927308,2.230460789770902,0.12824779466175174
19062.133149765432,2233.69502720743,2.2307589032957496,0.12822869630280984
19162.233149766922,2233.6628992629244,2.231050136219091,0.12821018392808625
19262.333149764687,2233.6314572864344,2.2313339641205157,0.12819228321941104
19362.433149766177,2233.601215186159,2.231610749930558,0.12817495207572124
19462.53314976394,2233.571972932557,2.2318812431055317,0.12815812163936263
19562.633149765432,2233.5441058234637,2.232144264083001,0.12814187629775273
19662.733149766922,2233.5164488796054,2.2324005502182587,0.12812615595441182
19762.833149764687,2233.4899165476163,2.2326504239058647,0.12811092022266646
19862.933149766177,2233.464544732602,2.232894205588027,0.12809613828653332
19963.03314976394,2233.439174199493,2.2331309515008284,0.12808187488061962
20000.0,2233.430612820749,2.233216965614058,0.1280767066679205
20000.0,2233.430612820749,2.233216965614058,0.1280767066679205
20000.00000004098,2233.430618708313,2.2332169654500706,0.12807670666791493
20000.00000043586,2233.430354664973,2.2332169728095126,0.12807670666786003
20000.000004399568,2233.430720833285,2.233216962614043,0.12807670666731016
20000.000044036657,2233.430618411601,2.233216965559797,0.1280767066618097
20000.000440407544,2233.430354368256,2.2332169738316776,0.12807670660685241
20000.00440413505,2233.4307205365626,2.233216972767003,0.12807670605681704
20000.044041372836,2233.430618114875,2.233217067015827,0.1280767005568153
20000.44041377306,2233.430280672397,2.233217990307858,0.1280766455608947
20004.404137771577,2233.4296883143998,2.2332271581226992,0.12807609470989081
20044.041377749294,2233.420120996264,2.2333181926788193,0.1280706399826207
20440.41377754882,2233.331556161694,2.2341787479094033,0.1280196345708902
23405.346113026142,2232.905373875871,2.2385222062392303,0.12777445571754958
27893.492592375726,2232.6511390746573,2.241255384464986,0.12762879819188253
33640.24554460868,2232.5384193532796,2.2424630269479238,0.1275658143591461
48216.67869421095,2232.240495487749,2.2456615482608777,0.12739929209043238
59706.668217368424,2232.0170188484262,2.24805720785078,0.12727488389432917
67873.12834339961,2231.8208412095314,2.2501807726414818,0.12716472038771207
75187.32275475562,2231.729885765343,2.2511362196716633,0.127115042194342
82501.51716611162,2231.515923043473,2.2534628746631316,0.1269943822617482
89653.1986580044,2231.456378077977,2.2540751783824278,0.12696330927692023
96165.87235596776,2231.243820456719,2.2564023520106278,0.12684261862418086
102547.41749572381,2231.1890509130994,2.256953804029904,0.12681395061124243
109397.60056263208,2230.9949644783715,2.2590757646774375,0.12670453840884732
116854.4920476377,2230.9214757989616,2.2598363344260597,0.12666524438773158
123838.80130955204,2230.6982964726735,2.2622867870133434,0.1265389236736587
130230.52057426423,2230.6607143463275,2.262680910494028,0.12652003771431855
136490.38302376494,2230.4784622095463,2.264685566664915,0.12641721567514724
143664.2067614384,2230.401470850176,2.2654835713783563,0.12637610703035468
150796.69680907577,2230.1841680001944,2.2678809407014207,0.1262532371206023
157319.55151471123,2230.1463241425768,2.268273124788394,0.12623437160958817
163668.0340277925,2229.9644784850107,2.27028256491516,0.126131861383395
171109.84178063273,2229.8797347093273,2.2711761222791007,0.12608619559379855
178094.43857963756,2229.6905468159425,2.273270099304831,0.12597972921228365
185079.0353786461,2229.621871036398,2.2739777237917678,0.12594351522337624
192231.66385275498,2229.4134083923072,2.27629165053661,0.1258259840941733
199005.87711826712,2229.3713863782273,2.27673231705221,0.12580485410714354
205474.23010013998,2229.1820841820595,2.2788371268469674,0.12569824784545713
212438.14059538767,2229.1174969692784,2.2795132312982362,0.12566378173287293
219894.92120846733,2228.917424838198,2.2817348388520027,0.12555167206531964
226584.97994171456,2228.8548182955706,2.2823865765685265,0.12551859398155812
233275.03867495805,2228.688132254637,2.284249870416593,0.1254249025118301
241129.75902905315,2228.612022154873,2.2850474842253314,0.1253844798079369
247754.03429740295,2228.4187500660555,2.2872152528544034,0.1252754659732792
254342.7879329659,2228.374820423003,2.287675793399388,0.12525288548849065
261164.31718526408,2228.192201727976,2.2897206732387283,0.12515049910379575
268464.011619851,2228.1328751501987,2.290348362010577,0.12511923278661752
275661.5415421836,2227.9318931706825,2.292604254622092,0.12500642289287286
282674.6930971816,2227.889788854814,2.2930508071488522,0.1249852032801538
